May 13, 2026   14:31:29
A.C. Impedance
File: c:\users\pc\desktop\srtpData Source:  Experiment
Instrument Model:  CHI760E
Header: 
Note: 

Init E (V) = 3.299
High Frequency (Hz) = 1e+4
Low Frequency (Hz) = 0.01
Imp FT
Amplitude (V) = 0.005
Quiet Time (sec) = 2
Cycles (.1-1Hz) = 1
Cycles (.01-.1Hz) = 1
Cycles (.001-.01Hz) = 1

Freq/Hz, Z'/ohm, Z"/ohm, Z/ohm, Phase/deg

9.668e+3, 2.643e-1, 7.113e-2, 2.737e-1, 15.1
8.105e+3, 2.672e-1, 5.971e-2, 2.738e-1, 12.6
6.641e+3, 2.646e-1, 4.539e-2, 2.685e-1, 9.7
5.469e+3, 2.648e-1, 3.840e-2, 2.676e-1, 8.3
4.590e+3, 2.632e-1, 3.001e-2, 2.649e-1, 6.5
3.711e+3, 2.635e-1, 2.383e-2, 2.646e-1, 5.2
3.125e+3, 2.647e-1, 1.850e-2, 2.653e-1, 4.0
2.539e+3, 2.653e-1, 1.511e-2, 2.657e-1, 3.3
2.148e+3, 2.656e-1, 1.116e-2, 2.658e-1, 2.4
1.758e+3, 2.659e-1, 7.508e-3, 2.660e-1, 1.6
1.465e+3, 2.673e-1, 4.960e-3, 2.673e-1, 1.1
1.172e+3, 2.684e-1, 3.475e-3, 2.684e-1, 0.7
9.668e+2, 2.694e-1, 2.402e-3, 2.694e-1, 0.5
8.105e+2, 2.703e-1, 6.130e-4, 2.703e-1, 0.1
6.641e+2, 2.705e-1, -1.007e-3, 2.705e-1, -0.2
5.469e+2, 2.713e-1, -2.012e-3, 2.713e-1, -0.4
4.590e+2, 2.713e-1, -3.442e-3, 2.713e-1, -0.7
3.711e+2, 2.720e-1, -4.911e-3, 2.720e-1, -1.0
3.125e+2, 2.738e-1, -5.311e-3, 2.739e-1, -1.1
2.539e+2, 2.750e-1, -5.075e-3, 2.750e-1, -1.1
2.148e+2, 2.758e-1, -5.717e-3, 2.759e-1, -1.2
1.758e+2, 2.765e-1, -6.363e-3, 2.766e-1, -1.3
1.465e+2, 2.780e-1, -6.187e-3, 2.781e-1, -1.3
1.172e+2, 2.856e-1, -5.569e-3, 2.857e-1, -1.1
9.766e+1, 2.965e-1, -5.369e-3, 2.965e-1, -1.0
8.138e+1, 3.035e-1, -5.714e-3, 3.035e-1, -1.1
6.975e+1, 3.069e-1, -6.386e-3, 3.070e-1, -1.2
5.744e+1, 3.077e-1, -7.086e-3, 3.078e-1, -1.3
4.650e+1, 3.078e-1, -7.650e-3, 3.079e-1, -1.4
3.756e+1, 3.079e-1, -8.076e-3, 3.080e-1, -1.5
3.150e+1, 3.085e-1, -8.350e-3, 3.086e-1, -1.6
2.570e+1, 3.093e-1, -8.567e-3, 3.094e-1, -1.6
2.123e+1, 3.102e-1, -8.780e-3, 3.103e-1, -1.6
1.744e+1, 3.111e-1, -8.973e-3, 3.112e-1, -1.7
1.436e+1, 3.120e-1, -9.144e-3, 3.121e-1, -1.7
1.191e+1, 3.115e-1, -8.650e-3, 3.116e-1, -1.6
9.766e+0, 3.102e-1, -7.771e-3, 3.103e-1, -1.4
8.071e+0, 3.097e-1, -7.275e-3, 3.097e-1, -1.3
6.643e+0, 3.099e-1, -7.158e-3, 3.100e-1, -1.3
5.486e+0, 3.107e-1, -7.327e-3, 3.108e-1, -1.4
4.542e+0, 3.117e-1, -7.573e-3, 3.117e-1, -1.4
3.742e+0, 3.127e-1, -7.523e-3, 3.127e-1, -1.4
3.090e+0, 3.136e-1, -7.275e-3, 3.137e-1, -1.3
2.550e+0, 3.144e-1, -7.256e-3, 3.145e-1, -1.3
2.105e+0, 3.153e-1, -7.445e-3, 3.154e-1, -1.4
1.738e+0, 3.162e-1, -7.811e-3, 3.163e-1, -1.4
1.434e+0, 3.171e-1, -8.341e-3, 3.172e-1, -1.5
1.184e+0, 3.179e-1, -8.499e-3, 3.181e-1, -1.5
9.766e-1, 3.188e-1, -8.474e-3, 3.189e-1, -1.5
8.071e-1, 3.196e-1, -8.865e-3, 3.197e-1, -1.6
6.643e-1, 3.205e-1, -9.613e-3, 3.206e-1, -1.7
5.486e-1, 3.213e-1, -1.063e-2, 3.215e-1, -1.9
4.542e-1, 3.222e-1, -1.176e-2, 3.224e-1, -2.1
3.742e-1, 3.232e-1, -1.303e-2, 3.234e-1, -2.3
3.090e-1, 3.242e-1, -1.446e-2, 3.245e-1, -2.6
2.550e-1, 3.253e-1, -1.606e-2, 3.257e-1, -2.8
2.105e-1, 3.266e-1, -1.785e-2, 3.271e-1, -3.1
1.738e-1, 3.279e-1, -1.984e-2, 3.285e-1, -3.5
1.434e-1, 3.293e-1, -2.207e-2, 3.300e-1, -3.8
1.184e-1, 3.308e-1, -2.456e-2, 3.317e-1, -4.2
9.766e-2, 3.326e-1, -2.738e-2, 3.337e-1, -4.7
8.071e-2, 3.345e-1, -3.063e-2, 3.359e-1, -5.2
6.643e-2, 3.367e-1, -3.434e-2, 3.384e-1, -5.8
5.486e-2, 3.391e-1, -3.830e-2, 3.413e-1, -6.4
4.542e-2, 3.421e-1, -4.273e-2, 3.448e-1, -7.1
3.742e-2, 3.455e-1, -4.802e-2, 3.488e-1, -7.9
3.090e-2, 3.493e-1, -5.410e-2, 3.535e-1, -8.8
2.550e-2, 3.538e-1, -6.102e-2, 3.590e-1, -9.8
2.105e-2, 3.589e-1, -6.884e-2, 3.654e-1, -10.9
1.738e-2, 3.650e-1, -7.757e-2, 3.732e-1, -12.0
1.434e-2, 3.722e-1, -8.707e-2, 3.823e-1, -13.2
1.184e-2, 3.805e-1, -9.727e-2, 3.928e-1, -14.3
