May 12, 2026   14:02:57
A.C. Impedance
File: c:\users\pc\desktop\srtpData Source:  Experiment
Instrument Model:  CHI760E
Header: 
Note: 

Init E (V) = 3.3
High Frequency (Hz) = 1e+4
Low Frequency (Hz) = 0.01
Imp FT
Amplitude (V) = 0.005
Quiet Time (sec) = 2
Cycles (.1-1Hz) = 1
Cycles (.01-.1Hz) = 1
Cycles (.001-.01Hz) = 1

Freq/Hz, Z'/ohm, Z"/ohm, Z/ohm, Phase/deg

9.668e+3, 3.255e-1, 6.928e-2, 3.328e-1, 12.0
8.105e+3, 3.256e-1, 5.788e-2, 3.307e-1, 10.1
6.641e+3, 3.276e-1, 4.549e-2, 3.307e-1, 7.9
5.469e+3, 3.265e-1, 3.873e-2, 3.288e-1, 6.8
4.590e+3, 3.260e-1, 3.133e-2, 3.275e-1, 5.5
3.711e+3, 3.258e-1, 2.472e-2, 3.267e-1, 4.3
3.125e+3, 3.260e-1, 1.863e-2, 3.265e-1, 3.3
2.539e+3, 3.256e-1, 1.409e-2, 3.259e-1, 2.5
2.148e+3, 3.263e-1, 1.014e-2, 3.264e-1, 1.8
1.758e+3, 3.277e-1, 6.743e-3, 3.278e-1, 1.2
1.465e+3, 3.293e-1, 4.477e-3, 3.294e-1, 0.8
1.172e+3, 3.296e-1, 3.187e-3, 3.297e-1, 0.6
9.668e+2, 3.296e-1, 1.945e-3, 3.296e-1, 0.3
8.105e+2, 3.304e-1, 3.428e-4, 3.304e-1, 0.1
6.641e+2, 3.318e-1, -1.016e-3, 3.318e-1, -0.2
5.469e+2, 3.330e-1, -1.385e-3, 3.330e-1, -0.2
4.590e+2, 3.337e-1, -2.260e-3, 3.337e-1, -0.4
3.711e+2, 3.346e-1, -3.969e-3, 3.347e-1, -0.7
3.125e+2, 3.353e-1, -5.174e-3, 3.353e-1, -0.9
2.539e+2, 3.355e-1, -5.804e-3, 3.356e-1, -1.0
2.148e+2, 3.366e-1, -6.376e-3, 3.367e-1, -1.1
1.758e+2, 3.382e-1, -6.917e-3, 3.383e-1, -1.2
1.465e+2, 3.399e-1, -6.610e-3, 3.399e-1, -1.1
1.172e+2, 3.410e-1, -5.401e-3, 3.411e-1, -0.9
9.766e+1, 3.424e-1, -4.539e-3, 3.424e-1, -0.8
8.138e+1, 3.434e-1, -4.474e-3, 3.434e-1, -0.7
6.975e+1, 3.444e-1, -5.034e-3, 3.444e-1, -0.8
5.744e+1, 3.452e-1, -5.749e-3, 3.453e-1, -1.0
4.650e+1, 3.460e-1, -6.378e-3, 3.461e-1, -1.1
3.756e+1, 3.468e-1, -6.791e-3, 3.468e-1, -1.1
3.150e+1, 3.475e-1, -7.026e-3, 3.476e-1, -1.2
2.570e+1, 3.482e-1, -7.208e-3, 3.483e-1, -1.2
2.123e+1, 3.488e-1, -7.282e-3, 3.489e-1, -1.2
1.744e+1, 3.495e-1, -7.274e-3, 3.496e-1, -1.2
1.436e+1, 3.503e-1, -7.255e-3, 3.504e-1, -1.2
1.191e+1, 3.511e-1, -6.733e-3, 3.511e-1, -1.1
9.766e+0, 3.518e-1, -5.910e-3, 3.518e-1, -1.0
8.071e+0, 3.525e-1, -5.442e-3, 3.525e-1, -0.9
6.643e+0, 3.532e-1, -5.316e-3, 3.532e-1, -0.9
5.486e+0, 3.538e-1, -5.442e-3, 3.539e-1, -0.9
4.542e+0, 3.545e-1, -5.616e-3, 3.546e-1, -0.9
3.742e+0, 3.552e-1, -5.463e-3, 3.552e-1, -0.9
3.090e+0, 3.559e-1, -5.156e-3, 3.559e-1, -0.8
2.550e+0, 3.565e-1, -5.105e-3, 3.566e-1, -0.8
2.105e+0, 3.573e-1, -5.219e-3, 3.573e-1, -0.8
1.738e+0, 3.580e-1, -5.442e-3, 3.581e-1, -0.9
1.434e+0, 3.587e-1, -5.752e-3, 3.588e-1, -0.9
1.184e+0, 3.594e-1, -5.663e-3, 3.595e-1, -0.9
9.766e-1, 3.601e-1, -5.428e-3, 3.601e-1, -0.9
8.071e-1, 3.607e-1, -5.658e-3, 3.608e-1, -0.9
6.643e-1, 3.615e-1, -6.242e-3, 3.616e-1, -1.0
5.486e-1, 3.623e-1, -7.044e-3, 3.624e-1, -1.1
4.542e-1, 3.631e-1, -7.823e-3, 3.632e-1, -1.2
3.742e-1, 3.640e-1, -8.675e-3, 3.641e-1, -1.4
3.090e-1, 3.650e-1, -9.611e-3, 3.652e-1, -1.5
2.550e-1, 3.662e-1, -1.062e-2, 3.663e-1, -1.7
2.105e-1, 3.674e-1, -1.168e-2, 3.676e-1, -1.8
1.738e-1, 3.688e-1, -1.286e-2, 3.690e-1, -2.0
1.434e-1, 3.703e-1, -1.426e-2, 3.706e-1, -2.2
1.184e-1, 3.720e-1, -1.588e-2, 3.724e-1, -2.4
9.766e-2, 3.740e-1, -1.756e-2, 3.744e-1, -2.7
8.071e-2, 3.762e-1, -1.942e-2, 3.767e-1, -3.0
6.643e-2, 3.785e-1, -2.150e-2, 3.791e-1, -3.3
5.486e-2, 3.811e-1, -2.345e-2, 3.819e-1, -3.5
4.542e-2, 3.841e-1, -2.554e-2, 3.849e-1, -3.8
3.742e-2, 3.872e-1, -2.812e-2, 3.882e-1, -4.2
3.090e-2, 3.907e-1, -3.115e-2, 3.919e-1, -4.6
2.550e-2, 3.944e-1, -3.453e-2, 3.960e-1, -5.0
2.105e-2, 3.987e-1, -3.827e-2, 4.005e-1, -5.5
1.738e-2, 4.035e-1, -4.225e-2, 4.057e-1, -6.0
1.434e-2, 4.088e-1, -4.629e-2, 4.114e-1, -6.5
1.184e-2, 4.148e-1, -5.042e-2, 4.178e-1, -6.9
