May 19, 2026   13:46:56
A.C. Impedance
File: c:\users\pc\desktop\srtpData Source:  Experiment
Instrument Model:  CHI760E
Header: 
Note: 

Init E (V) = 2.677
High Frequency (Hz) = 1e+4
Low Frequency (Hz) = 0.01
Imp FT
Amplitude (V) = 0.005
Quiet Time (sec) = 2
Cycles (.1-1Hz) = 1
Cycles (.01-.1Hz) = 1
Cycles (.001-.01Hz) = 1

Freq/Hz, Z'/ohm, Z"/ohm, Z/ohm, Phase/deg

9.668e+3, 2.969e-1, 7.174e-2, 3.055e-1, 13.6
8.105e+3, 2.998e-1, 5.987e-2, 3.057e-1, 11.3
6.641e+3, 2.968e-1, 4.524e-2, 3.002e-1, 8.7
5.469e+3, 2.971e-1, 3.814e-2, 2.995e-1, 7.3
4.590e+3, 2.953e-1, 2.968e-2, 2.968e-1, 5.7
3.711e+3, 2.956e-1, 2.336e-2, 2.965e-1, 4.5
3.125e+3, 2.969e-1, 1.799e-2, 2.974e-1, 3.5
2.539e+3, 2.977e-1, 1.441e-2, 2.980e-1, 2.8
2.148e+3, 2.981e-1, 1.007e-2, 2.983e-1, 1.9
1.758e+3, 2.986e-1, 6.177e-3, 2.986e-1, 1.2
1.465e+3, 3.002e-1, 3.549e-3, 3.002e-1, 0.7
1.172e+3, 3.015e-1, 1.900e-3, 3.015e-1, 0.4
9.668e+2, 3.025e-1, 5.167e-4, 3.025e-1, 0.1
8.105e+2, 3.035e-1, -1.661e-3, 3.035e-1, -0.3
6.641e+2, 3.039e-1, -3.706e-3, 3.039e-1, -0.7
5.469e+2, 3.048e-1, -5.136e-3, 3.049e-1, -1.0
4.590e+2, 3.048e-1, -6.947e-3, 3.049e-1, -1.3
3.711e+2, 3.057e-1, -8.860e-3, 3.058e-1, -1.7
3.125e+2, 3.079e-1, -9.754e-3, 3.080e-1, -1.8
2.539e+2, 3.095e-1, -1.028e-2, 3.096e-1, -1.9
2.148e+2, 3.109e-1, -1.197e-2, 3.111e-1, -2.2
1.758e+2, 3.122e-1, -1.352e-2, 3.125e-1, -2.5
1.465e+2, 3.146e-1, -1.424e-2, 3.150e-1, -2.6
1.172e+2, 3.223e-1, -1.485e-2, 3.226e-1, -2.6
9.766e+1, 3.328e-1, -1.610e-2, 3.332e-1, -2.8
8.138e+1, 3.404e-1, -1.785e-2, 3.408e-1, -3.0
6.975e+1, 3.452e-1, -1.977e-2, 3.458e-1, -3.3
5.744e+1, 3.479e-1, -2.151e-2, 3.486e-1, -3.5
4.650e+1, 3.503e-1, -2.296e-2, 3.511e-1, -3.7
3.756e+1, 3.530e-1, -2.413e-2, 3.538e-1, -3.9
3.150e+1, 3.560e-1, -2.504e-2, 3.569e-1, -4.0
2.570e+1, 3.594e-1, -2.573e-2, 3.603e-1, -4.1
2.123e+1, 3.627e-1, -2.624e-2, 3.636e-1, -4.1
1.744e+1, 3.658e-1, -2.668e-2, 3.668e-1, -4.2
1.436e+1, 3.689e-1, -2.700e-2, 3.699e-1, -4.2
1.191e+1, 3.703e-1, -2.638e-2, 3.713e-1, -4.1
9.766e+0, 3.706e-1, -2.528e-2, 3.715e-1, -3.9
8.071e+0, 3.718e-1, -2.478e-2, 3.727e-1, -3.8
6.643e+0, 3.740e-1, -2.485e-2, 3.748e-1, -3.8
5.486e+0, 3.768e-1, -2.542e-2, 3.777e-1, -3.9
4.542e+0, 3.800e-1, -2.619e-2, 3.809e-1, -3.9
3.742e+0, 3.834e-1, -2.670e-2, 3.843e-1, -4.0
3.090e+0, 3.869e-1, -2.708e-2, 3.878e-1, -4.0
2.550e+0, 3.904e-1, -2.781e-2, 3.914e-1, -4.1
2.105e+0, 3.942e-1, -2.876e-2, 3.953e-1, -4.2
1.738e+0, 3.983e-1, -2.995e-2, 3.994e-1, -4.3
1.434e+0, 4.021e-1, -3.142e-2, 4.034e-1, -4.5
1.184e+0, 4.059e-1, -3.262e-2, 4.072e-1, -4.6
9.766e-1, 4.096e-1, -3.388e-2, 4.110e-1, -4.7
8.071e-1, 4.131e-1, -3.588e-2, 4.147e-1, -5.0
6.643e-1, 4.167e-1, -3.842e-2, 4.185e-1, -5.3
5.486e-1, 4.204e-1, -4.137e-2, 4.224e-1, -5.6
4.542e-1, 4.243e-1, -4.473e-2, 4.266e-1, -6.0
3.742e-1, 4.284e-1, -4.863e-2, 4.312e-1, -6.5
3.090e-1, 4.328e-1, -5.314e-2, 4.361e-1, -7.0
2.550e-1, 4.374e-1, -5.825e-2, 4.413e-1, -7.6
2.105e-1, 4.423e-1, -6.405e-2, 4.469e-1, -8.2
1.738e-1, 4.476e-1, -7.071e-2, 4.532e-1, -9.0
1.434e-1, 4.534e-1, -7.833e-2, 4.601e-1, -9.8
1.184e-1, 4.595e-1, -8.703e-2, 4.677e-1, -10.7
9.766e-2, 4.660e-1, -9.701e-2, 4.760e-1, -11.8
8.071e-2, 4.731e-1, -1.086e-1, 4.854e-1, -12.9
6.643e-2, 4.805e-1, -1.219e-1, 4.958e-1, -14.2
5.486e-2, 4.887e-1, -1.371e-1, 5.076e-1, -15.7
4.542e-2, 4.976e-1, -1.547e-1, 5.211e-1, -17.3
3.742e-2, 5.070e-1, -1.756e-1, 5.366e-1, -19.1
3.090e-2, 5.172e-1, -2.004e-1, 5.546e-1, -21.2
2.550e-2, 5.281e-1, -2.295e-1, 5.758e-1, -23.5
2.105e-2, 5.398e-1, -2.638e-1, 6.008e-1, -26.0
1.738e-2, 5.525e-1, -3.042e-1, 6.307e-1, -28.8
1.434e-2, 5.662e-1, -3.519e-1, 6.666e-1, -31.9
1.184e-2, 5.808e-1, -4.070e-1, 7.092e-1, -35.0
